Mn025                                                         Mn025003 Mn025001 
Instrument parameter file:Mn025001.inst                                         
BANK  1     3296     660 CONST     300.00      5.00 0 0 ESD                     
    329.     36.    276.     32.    386.     40.    300.     34.    282.     33.
    292.     34.    255.     31.    208.     27.    309.     35.    236.     29.
    255.     31.    243.     30.    264.     32.    225.     29.    207.     27.
    278.     33.    206.     27.    242.     30.    244.     30.    203.     27.
    242.     30.    212.     27.    231.     29.    268.     32.    184.     25.
    244.     30.    217.     28.    222.     28.    238.     30.    222.     28.
    215.     28.    251.     31.    247.     30.    189.     25.    233.     29.
    204.     27.    261.     31.    215.     28.    221.     28.    179.     25.
    187.     25.    225.     29.    208.     27.    126.     19.    235.     29.
    207.     27.    227.     29.    184.     25.    212.     27.    203.     27.
    181.     25.    221.     28.    190.     26.    188.     25.    250.     31.
    148.     21.    188.     25.    189.     25.    225.     29.    186.     25.
    201.     27.    161.     23.    185.     25.    164.     23.    198.     26.
    194.     26.    164.     23.    180.     25.    219.     28.    189.     25.
    181.     25.    185.     25.    173.     24.    185.     25.    215.     28.
    190.     26.    187.     25.    180.     25.    212.     27.    175.     24.
    131.     20.    147.     21.    181.     25.    222.     28.    189.     26.
    183.     25.    169.     24.    164.     23.    203.     27.    158.     22.
    171.     24.    187.     25.    180.     25.    181.     25.    212.     27.
    185.     25.    160.     23.    225.     29.    134.     20.    158.     22.
    165.     16.    176.     17.    149.     15.    154.     15.    182.     17.
    131.     13.    177.     17.    162.     16.    169.     16.    184.     17.
    174.     17.    156.     15.    170.     16.    181.     17.    171.     16.
    171.     16.    179.     17.    170.     16.    155.     15.    146.     15.
    149.     15.    163.     16.    147.     15.    175.     17.    192.     18.
    151.     15.    181.     17.    160.     16.    174.     17.    147.     15.
    145.     15.    185.     17.    177.     17.    145.     15.    139.     14.
    161.     16.    145.     15.    179.     17.    150.     15.    185.     17.
    175.     17.    162.     16.    158.     16.    140.     14.    167.     16.
    168.     16.    150.     15.    152.     15.    149.     15.    147.     15.
    169.     16.    158.     16.    149.     15.    156.     15.    168.     16.
    180.     17.    174.     17.    177.     17.    155.     15.    132.     13.
    163.     16.    174.     17.    154.     15.    176.     17.    173.     17.
    154.     15.    154.     15.    159.     16.    170.     16.    158.     16.
    163.     16.    145.     15.    145.     15.    150.     15.    199.     18.
    183.     17.    164.     16.    170.     16.    145.     15.    164.     16.
    149.     15.    179.     17.    172.     16.    188.     18.    198.     18.
    161.     16.    158.     15.    186.     17.    174.     17.    160.     16.
    166.     16.    176.     17.    198.     18.    165.     16.    193.     18.
    179.     17.    147.     20.    165.     22.    179.     24.    184.     24.
    155.     16.    159.     16.    146.     15.    145.     15.    150.     15.
    159.     16.    164.     16.    142.     15.    168.     17.    158.     16.
    149.     15.    150.     15.    155.     16.    158.     16.    141.     15.
    154.     16.    149.     15.    155.     16.    167.     16.    156.     16.
    186.     18.    151.     15.    155.     16.    160.     16.    164.     16.
    178.     17.    163.     16.    157.     16.    163.     16.    164.     16.
    150.     15.    171.     17.    175.     17.    167.     17.    155.     16.
    153.     16.    160.     16.    169.     16.    164.     16.    147.     15.
    178.     17.    225.     20.    164.     16.    190.     18.    189.     18.
    182.     17.    158.     16.    161.     16.    150.     15.    179.     17.
    128.     13.    168.     16.    193.     18.    159.     16.    166.     16.
    146.     15.    158.     16.    162.     16.    147.     15.    156.     16.
    180.     17.    172.     17.    175.     17.    167.     17.    156.     16.
    154.     16.    165.     16.    164.     16.    166.     16.    166.     16.
    163.     16.    206.     19.    187.     18.    160.     16.    164.     16.
    179.     17.    189.     18.    173.     17.    170.     17.    158.     16.
    173.     17.    166.     16.    180.     17.    183.     18.    173.     17.
    174.     17.    157.     16.    143.     15.    163.     16.    157.     16.
    148.     15.    139.     14.    159.     16.    177.     17.    166.     16.
    173.     17.    171.     25.    179.     17.    172.     17.    143.     15.
    174.     17.    142.     15.    164.     16.    177.     17.    183.     18.
    184.     18.    209.     19.    269.     22.    330.     25.    487.     31.
    775.     39.   1109.     48.   1500.     56.   1972.     64.   2283.     69.
   2227.     68.   1658.     59.   1174.     49.    636.     35.    347.     25.
    237.     21.    181.     17.    162.     16.    158.     16.    145.     15.
    143.     15.    164.     16.    156.     16.    171.     17.    156.     16.
    123.     13.    157.     16.    147.     15.    126.     14.    134.     14.
    126.     14.    140.     15.    151.     15.    135.     14.    140.     15.
    166.     16.    161.     16.    153.     16.    144.     15.    134.     14.
    142.     15.    151.     15.    140.     15.    153.     16.    129.     14.
    128.     14.    160.     16.    135.     14.    116.     13.    146.     15.
    149.     15.    141.     15.    130.     14.    151.     15.    163.     16.
    160.     16.    127.     14.    108.     12.    148.     15.    128.     14.
    145.     15.    138.     15.    145.     15.    142.     15.    143.     15.
    127.     14.    148.     15.    146.     15.    137.     14.    141.     15.
    156.     16.    134.     14.    143.     15.    154.     16.    141.     15.
    139.     15.    153.     16.    137.     14.    143.     15.    142.     15.
    142.     15.    125.     13.    114.     13.    121.     13.    134.     14.
    136.     14.    118.     13.    135.     14.    166.     16.    230.     20.
    323.     25.    462.     29.    597.     33.    748.     37.    798.     38.
    754.     37.    595.     33.    431.     28.    271.     21.    175.     16.
    135.     14.    134.     14.    127.     13.    120.     13.    140.     14.
    118.     13.    116.     12.    146.     15.    130.     13.    151.     15.
    150.     15.    131.     14.    149.     15.    138.     14.    132.     14.
    120.     13.    130.     13.    129.     13.    129.     13.    138.     14.
    136.     14.    137.     14.    126.     13.    138.     14.    125.     13.
    128.     13.    121.     13.     94.     10.    124.     13.    120.     13.
    140.     14.    127.     13.    124.     13.    120.     13.    113.     12.
    138.     14.    116.     12.    138.     14.    121.     13.    110.     12.
    105.     11.    129.     13.    129.     13.    123.     13.    109.     12.
    146.     15.    132.     14.    109.     12.    142.     14.    147.     15.
    131.     14.    117.     13.    118.     13.    121.     13.    132.     14.
     84.      9.    111.     12.    141.     14.    136.     14.    126.     13.
    142.     14.    128.     13.    122.     13.    104.     11.    112.     12.
    115.     12.    116.     12.    123.     13.    115.     12.    106.     11.
    146.     14.    113.     12.    127.     13.    144.     14.    107.     12.
    118.     13.    126.     13.    115.     12.    114.     12.    128.     13.
    109.     12.    138.     14.    142.     14.    124.     13.    130.     13.
    131.     14.    136.     14.    104.     11.    119.     13.    115.     12.
    136.     14.    130.     13.    109.     12.    117.     13.    116.     13.
    122.     13.    124.     13.    143.     14.    120.     13.    115.     13.
    117.     13.    117.     13.    101.     11.    141.     14.    190.     17.
    271.     21.    381.     26.    478.     29.    657.     34.    766.     37.
    825.     39.    636.     34.    460.     28.    281.     22.    175.     16.
    155.     15.    139.     14.    129.     14.    106.     12.     83.     10.
    109.     12.    130.     14.    128.     14.    133.     14.    132.     14.
    134.     14.    129.     14.    163.     16.    217.     19.    303.     23.
    409.     27.    473.     29.    484.     29.    422.     27.    346.     24.
    245.     20.    165.     16.    122.     13.    119.     13.    126.     13.
    140.     14.    145.     15.    152.     15.    173.     16.    237.     20.
    406.     26.    699.     35.   1211.     47.   1945.     60.   3012.     75.
   4115.     88.   4681.     94.   4681.     94.   3868.     85.   2656.     70.
   1431.     51.    703.     35.    289.     22.    194.     17.    134.     14.
    129.     14.    122.     13.    126.     13.    123.     13.    123.     13.
    129.     14.    139.     14.    130.     14.    102.     12.    109.     12.
    102.     12.    104.     12.     94.     11.    100.     11.    129.     14.
    136.     14.    122.     13.    110.     12.    115.     12.    114.     12.
    103.     12.    106.     12.    112.     12.    105.     12.    106.     12.
     99.     11.    111.     12.     96.     11.    101.     11.    118.     13.
    109.     12.    123.     13.    112.     12.    112.     12.     95.     11.
    106.     12.    110.     12.    106.     12.    106.     12.     98.     11.
    123.     13.    123.     13.    132.     14.    146.     14.    129.     13.
    132.     13.    189.     17.    248.     20.    272.     21.    237.     19.
    201.     18.    178.     16.    119.     12.    136.     14.    108.     12.
    106.     12.    108.     12.    120.     13.    119.     13.    117.     12.
    110.     12.    107.     12.    114.     12.    107.     12.    114.     12.
    114.     12.    104.     12.    115.     12.    106.     12.    101.     11.
    108.     12.    128.     13.    109.     12.    106.     12.    118.     13.
    120.     13.    127.     13.    169.     16.    185.     17.    271.     21.
    394.     25.    498.     29.    664.     34.    711.     35.    691.     34.
    623.     33.    454.     27.    260.     20.    195.     17.    158.     15.
    126.     13.    119.     13.    122.     13.    110.     12.     97.     11.
    105.     12.    111.     12.    112.     12.    105.     12.    119.     13.
    113.     12.     97.     11.     98.     11.    116.     12.    136.     14.
    129.     13.    119.     13.    112.     12.    108.     12.    123.     13.
    123.     13.    104.     12.     95.     11.    116.     12.    120.     13.
    116.     12.    106.     12.    111.     12.    113.     12.    119.     13.
    107.     12.     98.     11.    119.     13.    110.     12.    115.     12.
    115.     12.    124.     13.    117.     13.    131.     14.    164.     15.
    284.     21.    538.     23.    847.     35.   1108.     40.   1293.     44.
   1244.     43.    995.     38.    715.     32.    414.     24.    303.     20.
    246.     18.    290.     20.    340.     22.    429.     25.    565.     28.
    770.     33.    913.     37.    929.     37.    819.     35.    653.     31.
    405.     24.    227.     17.    183.     15.    160.     14.    136.     13.
    119.     12.    115.     12.    112.     11.    108.     11.    115.     12.
    115.     12.    109.     11.    125.     12.    111.     11.    106.     11.
    122.     12.    122.     12.    129.     12.    125.     12.    117.     12.
    120.     12.    101.     11.    112.     11.    113.     12.    108.     11.
    106.     11.    103.     11.    108.     11.    127.     12.    146.     13.
    131.     13.    135.     13.     92.     10.    116.     12.    105.     11.
    111.     11.    121.     12.    115.     11.    137.     13.     97.     10.
    118.     12.    115.     12.    101.     11.    110.     11.    116.     12.
    116.     12.    105.     11.    118.     12.    109.     11.    107.     11.
    107.     11.    107.     11.    112.     11.    112.     11.    126.     12.
    132.     13.    145.     13.    136.     13.    140.     13.    149.     14.
    205.     16.    289.     20.    307.     21.    323.     21.    295.     20.
    262.     19.    187.     16.    143.     13.    127.     12.    135.     13.
    124.     12.    129.     12.    165.     14.    206.     16.    296.     20.
    357.     22.    390.     23.    350.     22.    288.     20.    200.     16.
    140.     13.    106.     10.    108.     11.    124.     12.    143.     13.
    189.     15.    254.     17.    381.     22.    737.     31.   1332.     42.
   2047.     52.   2682.     60.   2880.     62.   2452.     57.   1747.     48.
   1058.     37.    523.     26.    245.     17.    158.     13.    145.     13.
    107.     10.    110.     11.    107.     10.    100.     10.    101.     10.
    122.     11.    122.     11.    131.     12.    122.     11.    130.     12.
    131.     12.    154.     13.    163.     14.    188.     15.    202.     15.
    215.     16.    291.     19.    374.     22.    537.     26.    732.     31.
    968.     36.   1312.     42.   1517.     45.   1480.     44.   1217.     40.
    833.     33.    491.     25.    268.     18.    162.     14.    138.     12.
    110.     11.    105.     10.    103.     10.    114.     11.    109.     11.
    109.     11.    111.     11.    117.     11.    114.     11.    109.     11.
    104.     10.    106.     10.    129.     12.    123.     11.    108.     11.
    114.     11.    135.     12.    131.     12.    157.     13.    200.     15.
    242.     17.    258.     18.    249.     17.    237.     17.    201.     15.
    167.     14.    197.     15.    266.     18.    476.     24.    761.     31.
   1061.     37.   1225.     40.   1227.     40.   1061.     37.    802.     32.
    718.     31.    500.     25.    340.     20.    198.     15.    159.     13.
    125.     12.    113.     11.    106.     10.    121.     11.    118.     11.
    117.     11.    112.     11.     99.     10.    113.     11.    110.     11.
    114.     11.    116.     11.    116.     11.     93.      9.     88.      9.
     95.     10.    105.     10.    102.     10.     96.     10.    103.     10.
    107.     10.    105.     10.    117.     11.    106.     10.     97.     10.
     93.      9.    112.     11.    107.     10.    122.     11.    131.     12.
    134.     12.    178.     14.    258.     17.    392.     21.    547.     25.
    630.     27.    656.     28.    570.     26.    386.     21.    238.     16.
    206.     15.    221.     16.    321.     19.    519.     24.    874.     32.
   1328.     39.   1674.     44.   1621.     44.   1365.     40.    907.     32.
    526.     25.    318.     19.    196.     15.    151.     13.    208.     15.
    371.     20.    553.     25.    773.     30.    962.     34.    913.     33.
    794.     30.    546.     25.    325.     19.    203.     15.    144.     12.
    126.     11.    109.     10.    100.     10.    116.     11.    107.     10.
    104.     10.    111.     11.     97.     10.     93.     10.    100.     10.
    101.     10.     95.     10.    105.     10.     93.     10.     90.      9.
    107.     10.    114.     11.    106.     10.    106.     10.    104.     10.
    106.     10.     89.      9.    104.     10.    106.     10.    102.     10.
    102.     10.    105.     10.    100.     10.    100.     10.    109.     11.
    107.     10.    108.     10.    109.     10.    123.     11.    167.     13.
    156.     13.    167.     13.    153.     13.    140.     12.    132.     12.
    122.     11.    138.     12.    181.     14.    293.     18.    575.     25.
   1122.     36.   2481.     51.   3895.     64.   5586.     76.   6344.     82.
   6059.     80.   4694.     70.   2815.     54.   1442.     38.    578.     24.
    306.     17.    161.     13.    139.     12.    129.     11.    106.     10.
    111.     10.    112.     10.     89.      9.    100.     10.    114.     10.
     99.     10.     98.     10.     98.     10.     96.      9.     92.      9.
     99.     10.    101.     10.     95.      9.    114.     10.    103.     10.
     95.      9.     90.      9.     99.     10.     83.      9.    113.     10.
     97.     10.     90.      9.     97.     10.     93.      9.    102.     10.
    110.     10.     93.      9.     90.      9.     91.      9.     89.      9.
    106.     10.     91.      9.    105.     10.    100.     10.     93.      9.
     94.      9.     98.     10.    106.     10.     97.     10.    109.     10.
    103.     10.    116.     11.     87.      9.    101.     10.    100.     10.
     92.      9.     93.      9.     96.      9.    103.     10.     99.     10.
     92.      9.     76.      8.    101.     10.    113.     10.    155.     12.
    239.     15.    408.     20.    677.     26.   1108.     34.   1458.     39.
   1679.     42.   1556.     40.   1208.     35.    759.     28.    450.     21.
    265.     16.    158.     12.    124.     11.     99.     10.    102.     10.
     95.      9.     96.      9.     83.      9.    101.     10.     89.      9.
    100.     10.    101.     10.     99.     10.    102.     10.     85.      9.
     93.      9.     94.      9.     93.      9.     96.     10.     93.      9.
     96.      9.     86.      9.    104.     10.     99.      9.    102.      9.
    107.     10.    112.     10.    135.     11.    144.     11.    194.     14.
    176.     13.    155.     12.    155.     12.    123.     11.     89.      9.
     92.      9.     93.      9.     93.      9.     89.      9.    106.     10.
     78.      8.     99.      9.    102.      9.     89.      9.     87.      9.
     89.      9.     89.      9.     96.      9.     91.      9.    119.     10.
    139.     11.    209.     14.    315.     17.    494.     22.    654.     25.
    636.     25.    504.     22.    379.     19.    235.     15.    152.     12.
    120.     10.     94.      9.     94.      9.     90.      9.     77.      8.
     78.      8.     88.      9.     87.      9.    109.     10.    112.     10.
    111.     10.     98.      9.     96.      9.     76.      8.     92.      9.
     99.      9.     89.      9.     96.      9.     80.      8.     86.      9.
     98.      9.     97.      9.     96.      9.    106.     10.     88.      9.
     80.      8.     96.      9.     94.      9.    116.     10.     86.      9.
     92.      9.     99.      9.     93.      9.    102.      9.     94.      9.
     94.      9.     94.      9.    120.     10.    127.     11.    186.     13.
    233.     15.    327.     18.    431.     20.    410.     20.    380.     19.
    341.     18.    277.     16.    205.     14.    184.     13.    211.     14.
    389.     19.    675.     26.   1156.     34.   1836.     43.   2490.     50.
   2843.     53.   2649.     51.   2115.     46.   1392.     37.    823.     28.
    402.     20.    203.     13.    138.     11.    127.     10.    105.      9.
     91.      9.    100.      9.     90.      9.     98.      9.     85.      8.
     89.      9.     83.      8.     89.      9.     93.      9.     94.      9.
     95.      9.    114.     10.    106.     10.    130.     11.    151.     11.
    223.     14.    409.     19.    677.     25.   1016.     31.   1372.     36.
   1594.     38.   1538.     38.   1157.     33.    797.     27.    500.     21.
    321.     17.    221.     14.    165.     12.    136.     11.    105.      9.
    102.      9.     94.      9.     94.      9.    100.      9.    122.     10.
    109.     10.    117.     10.    132.     11.    130.     11.    133.     11.
    144.     11.    209.     14.    344.     18.    534.     22.    777.     27.
   1153.     33.   1413.     36.   1563.     38.   1385.     36.   1095.     32.
    770.     26.    468.     21.    248.     15.    153.     12.    123.     10.
    109.     10.     99.      9.     87.      9.     94.      9.     97.      9.
     84.      8.     93.      9.     84.      8.     84.      8.     91.      9.
    106.     10.    106.      9.     94.      9.     81.      8.    101.      9.
    107.     10.    127.     10.    155.     12.    167.     12.    202.     13.
    236.     15.    248.     15.    244.     15.    259.     15.    249.     15.
    258.     15.    225.     14.    181.     13.    145.     11.    120.     10.
    115.     10.     92.      9.     94.      9.     90.      9.     90.      9.
     93.      9.     90.      9.     96.      9.    111.     10.    144.     11.
    229.     14.    396.     26.    658.     23.    894.     27.   1010.     29.
    878.     27.    701.     24.    489.     20.    295.     16.    166.     11.
    116.     10.    114.     10.     99.      9.     75.      8.     87.      8.
     78.      8.     74.      8.     79.      8.     86.      8.     91.      8.
     87.      8.     84.      8.     94.      9.     91.      8.     84.      8.
     84.      8.     80.      8.     80.      8.     92.      9.     94.      9.
     85.      8.     83.      8.     83.      8.     91.      8.     90.      8.
     98.      9.     98.      9.     98.      9.    106.      9.    131.     10.
    121.     10.    110.      9.    108.      9.    101.      9.    102.      9.
     90.      8.     92.      8.     95.      9.     94.      9.     94.      9.
     89.      8.     90.      8.     90.      8.    101.      9.    131.     10.
    183.     12.    304.     16.    514.     21.    817.     26.   1068.     30.
   1194.     32.   1128.     31.    955.     28.    658.     23.    394.     18.
    259.     15.    180.     12.    105.      9.    102.      9.     89.      8.
     91.      8.     93.      9.     94.      9.     77.      8.     79.      8.
     75.      8.     84.      8.     82.      8.     90.      8.     99.      9.
     97.      9.    106.      9.     99.      9.    102.      9.    152.     11.
    232.     14.    302.     16.    371.     18.    373.     18.    331.     17.
    283.     15.    211.     13.    156.     11.    121.     10.    100.      9.
     80.      8.     88.      8.     98.      9.     98.      9.     82.      8.
     81.      8.     95.      9.    106.      9.    113.     10.    126.     10.
    163.     12.    257.     15.    451.     19.    793.     26.   1320.     33.
   1900.     40.   2221.     43.   2290.     44.   2043.     42.   1542.     36.
    989.     29.    604.     22.    329.     17.    185.     12.    133.     10.
    109.      9.    100.      9.     98.      9.     99.      9.    103.      9.
     95.      9.     93.      9.     83.      8.     81.      8.     72.      8.
     88.      8.     99.      9.     94.      9.     94.      9.     89.      9.
     94.      9.     90.      9.    102.      9.    123.     10.    171.     12.
    238.     14.    277.     15.    260.     15.    243.     14.    229.     14.
    191.     13.    162.     12.    137.     11.    136.     11.    155.     11.
    200.     13.    336.     17.    458.     20.    617.     23.    738.     25.
    750.     25.    681.     24.    548.     21.    373.     18.    260.     15.
    183.     12.    126.     10.    100.      9.    102.      9.    100.      9.
     96.      9.     84.      8.     82.      8.     92.      9.     96.      9.
     89.      8.     75.      8.     90.      9.     88.      8.     91.      9.
     89.      8.     83.      8.     79.      8.     79.      8.     82.      8.
     80.      8.     95.      9.     91.      9.     80.      8.     75.      8.
     86.      8.     83.      8.     79.      8.     74.      8.     81.      8.
     70.      7.     84.      8.     87.      8.    100.      9.    109.      9.
     98.      9.    108.      9.    107.      9.    108.      9.     98.      9.
    102.      9.    112.      8.    115.     10.    129.     11.    164.     12.
    222.     14.    242.     14.    262.     15.    290.     16.    317.     16.
    417.     19.    603.     22.    935.     28.   1295.     33.   1702.     38.
   2022.     41.   2107.     42.   1940.     40.   1650.     37.   1192.     32.
    818.     26.    489.     20.    303.     16.    188.     13.    129.     11.
     95.      9.    105.     10.    112.     10.     90.      9.     85.      9.
     75.      8.     84.      9.     91.      9.     85.      9.     89.      9.
     80.      8.     76.      8.     76.      8.     85.      9.     89.      9.
     78.      8.     71.      8.     75.      8.     89.      9.     75.      8.
     79.      8.     78.      8.     87.      9.     68.      8.     72.      8.
     79.      8.     78.      8.     83.      8.     94.      9.     82.      8.
     74.      8.     85.      9.     83.      9.     98.      9.    133.     11.
    143.     11.    209.     13.    279.     15.    347.     17.    436.     19.
    645.     23.    775.     26.    880.     27.    930.     28.    843.     27.
    707.     24.    534.     21.    391.     18.    260.     15.    186.     13.
    138.     11.     96.      9.     81.      8.     82.      8.     60.      7.
     81.      8.     76.      8.     83.      9.     77.      8.     76.      8.
     79.      8.     90.      9.     84.      9.     78.      8.     85.      9.
     88.      9.     94.      9.    107.     10.    119.     10.    153.     11.
    190.     13.    240.     14.    324.     17.    456.     20.    568.     22.
    688.     24.    741.     35.    723.     24.    637.     23.    460.     19.
    309.     16.    222.     13.    149.     11.    131.     10.     98.      9.
     97.      9.     93.      9.    104.      9.    133.     10.    210.     13.
    303.     16.    415.     18.    560.     21.    677.     23.    691.     23.
    635.     23.    558.     21.    390.     18.    271.     15.    170.     12.
    123.     10.    105.      9.     81.      8.     91.      9.     96.      9.
     79.      8.     73.      8.     70.      8.     83.      8.     82.      8.
     80.      8.     65.      7.     86.      8.     82.      8.     78.      8.
     89.      9.     84.      8.     81.      8.     83.      8.     65.      7.
     74.      8.     94.      9.     99.      9.    127.     10.    226.     13.
    331.     16.    449.     19.    538.     21.    648.     23.    655.     23.
    580.     22.    517.     20.    440.     19.    330.     16.    282.     15.
    274.     15.    277.     15.    270.     15.    279.     15.    271.     15.
    251.     14.    242.     14.    250.     14.    370.     17.    540.     21.
    763.     25.    968.     28.   1157.     30.   1210.     31.   1057.     29.
    901.     27.    727.     24.    453.     19.    287.     15.    178.     12.
    116.     10.     96.      9.     92.      9.     88.      9.     95.      9.
     83.      8.     87.      9.     88.      9.     85.      8.     82.      8.
    103.      9.    121.     10.    174.     12.    262.     14.    431.     19.
    620.     22.    932.     27.   1143.     30.   1161.     30.   1189.     31.
   1119.     30.    903.     27.    773.     25.    493.     20.    335.     16.
    221.     13.    151.     11.    140.     11.    108.      9.    115.     10.
     77.      8.     83.      8.     83.      8.     78.      8.     82.      8.
     98.      9.     90.      9.    124.     10.    136.     10.    195.     12.
    197.     13.    231.     14.    238.     14.    233.     14.    228.     14.
    170.     12.    143.     11.    111.      9.    103.      9.     86.      8.
     75.      8.     99.      9.     72.      8.     89.      8.     68.      7.
     78.      8.     83.      8.     83.      8.     86.      8.     80.      8.
     83.      8.     78.      8.     81.      8.     94.      9.    100.      9.
     93.      9.    100.      9.    130.     10.    161.     11.    190.     12.
    212.     13.    230.     14.    267.     15.    256.     14.    264.     15.
    231.     14.    220.     13.    199.     13.    144.     11.    131.     10.
    144.     11.     89.      8.    116.     10.     85.      8.     97.      9.
    118.     10.    142.     11.    185.     12.    235.     14.    308.     16.
    332.     16.    345.     17.    339.     16.    309.     16.    288.     15.
    206.     13.    148.     11.    114.     10.     93.      9.     91.      9.
    109.      9.     81.      8.     85.      8.     84.      8.     92.      9.
     72.      8.     71.      8.     90.      9.     68.      7.    111.      9.
     77.      8.     86.      8.     78.      8.     82.      8.     82.      8.
     79.      8.     78.      8.     66.      7.     77.      8.     97.      9.
    103.      9.    128.     10.    188.     13.    250.     15.    296.     16.
    276.     15.    304.     16.    301.     16.    310.     16.    267.     15.
    245.     14.    205.     13.    193.     13.    187.     13.    157.     12.
    153.     11.    149.     11.    193.     13.    302.     16.    479.     20.
    719.     25.    976.     29.   1134.     31.   1189.     32.   1229.     32.
   1107.     31.   1033.     30.    719.     25.    500.     21.    334.     17.
    229.     14.    125.     10.    106.     10.     98.      9.     93.      9.
     76.      8.     87.      9.     71.      8.     84.      8.     75.      8.
     96.      9.     83.      8.    100.      9.     95.      9.     95.      9.
    124.     10.    147.     11.    196.     13.    202.     13.    213.     14.
    196.     13.    217.     14.    196.     13.    164.     12.    151.     11.
    116.     10.    109.     10.     89.      9.    101.      9.     70.      8.
     73.      8.     74.      8.     76.      8.     97.      9.     94.      9.
     92.      9.     78.      8.     78.      8.     90.      9.     85.      9.
     75.      8.     82.      8.     85.      9.     83.      8.     79.      8.
     77.      8.     67.      8.     88.      9.     80.      8.     78.      8.
     75.      8.     69.      8.     78.      8.     71.      8.     83.      8.
     75.      8.     73.      8.     95.      9.     87.      9.     68.      8.
     70.      8.     73.      8.     75.      8.     88.      9.     92.      9.
    103.      9.    127.     10.    159.     12.    183.     13.    222.     14.
    246.     15.    281.     16.    331.     17.    356.     18.    361.     18.
    365.     18.    364.     18.    364.     18.    393.     18.    438.     19.
    538.     22.    657.     24.    737.     25.    747.     25.    770.     26.
    771.     26.    735.     25.    692.     25.    635.     23.    542.     22.
    467.     20.    443.     20.    434.     19.    435.     19.    410.     19.
    402.     19.    371.     18.    316.     17.    268.     15.    214.     14.
    207.     13.    236.     14.    286.     16.    291.     16.    330.     17.
    357.     18.    363.     18.    350.     17.    328.     17.    271.     15.
    250.     15.    209.     13.    153.     12.    141.     11.    121.     10.
     89.      9.    100.      9.     78.      8.     73.      8.     82.      8.
     88.      9.    107.     10.    144.     11.    200.     13.    274.     15.
    362.     18.    508.     21.    555.     22.    566.     22.    648.     24.
    671.     24.    784.     26.    895.     28.   1133.     31.   1409.     35.
   1695.     38.   1765.     39.   1806.     40.   1818.     40.   1763.     39.
   1658.     38.   1442.     35.   1119.     31.    810.     26.    557.     22.
    332.     17.    222.     14.    152.     11.    156.     12.    114.     10.
    107.     10.     93.      9.    102.      9.     78.      8.     94.      9.
     79.      8.     78.      8.     94.      9.     77.      8.     69.      8.
     64.      7.     76.      8.     78.      8.     75.      8.     92.      9.
     91.      9.     66.      8.     73.      8.     90.      9.     85.      9.
     72.      8.     81.      8.     77.      8.     86.      8.     76.      8.
     93.      9.     85.      8.     91.      9.     90.      9.     87.      8.
     83.      8.     83.      8.     95.      9.     81.      8.     63.      7.
    100.      9.    109.      9.    117.     10.    112.      9.    175.     12.
    223.     13.    282.     15.    416.     18.    593.     22.    731.     24.
    821.     26.    893.     27.    889.     27.    925.     27.    892.     27.
    881.     27.    764.     25.    627.     23.    499.     20.    381.     18.
    268.     15.    178.     12.    152.     11.    126.     10.    114.     10.
     93.      9.    100.      9.    127.     10.    145.     11.    188.     12.
    219.     13.    234.     14.    261.     15.    271.     15.    321.     16.
    322.     16.    291.     15.    324.     16.    321.     16.    275.     15.
    282.     15.    257.     14.    264.     15.    254.     14.    239.     14.
    225.     13.    230.     14.    201.     13.    195.     13.    145.     11.
    142.     11.    126.     10.    121.     10.    115.     10.     90.      9.
     84.      8.     81.      8.    105.      9.     97.      9.     82.      8.
     87.      8.     88.      8.     98.      9.     81.      8.     79.      8.
     83.      8.     82.      8.    100.      9.     96.      9.     80.      8.
     87.      8.     74.      8.     87.      8.     70.      7.     77.      8.
     69.      7.     69.      7.     70.      8.     70.      8.     79.      8.
     88.      8.     77.      8.     81.      8.     89.      8.     97.      9.
     79.      8.    105.     13.    101.      9.     92.      9.     89.      9.
     93.      9.     99.      9.     86.      8.     71.      8.     81.      8.
     66.      7.     82.      8.     94.      9.     84.      8.     73.      8.
     72.      8.     72.      8.     81.      8.     74.      8.     73.      8.
     75.      8.     81.      8.     84.      8.     72.      8.     83.      8.
    107.      9.    108.      9.    155.     11.    237.     14.    301.     16.
    404.     18.    495.     20.    514.     20.    598.     22.    628.     22.
    644.     23.    626.     22.    604.     22.    551.     21.    465.     19.
    395.     18.    307.     16.    215.     13.    159.     11.    132.     10.
    114.     10.     90.      9.     86.      8.     80.      8.     78.      8.
     65.      7.     79.      8.     83.      8.     80.      8.     92.      9.
    122.     10.    158.     11.    224.     13.    329.     16.    419.     18.
    506.     20.    628.     22.    709.     24.    738.     24.    756.     25.
    760.     25.    728.     24.    668.     23.    584.     22.    495.     20.
    408.     18.    288.     15.    209.     13.    178.     12.    165.     12.
    143.     11.    145.     11.    136.     11.    136.     11.    137.     11.
    146.     11.    144.     11.    152.     11.    139.     11.    151.     11.
    181.     12.    204.     13.    227.     14.    246.     14.    252.     14.
    313.     16.    382.     18.    434.     19.    486.     20.    529.     21.
    536.     21.    536.     21.    559.     21.    568.     21.    488.     20.
    454.     19.    428.     19.    422.     18.    407.     18.    352.     17.
    331.     16.    331.     16.    336.     16.    333.     16.    310.     16.
    320.     16.    314.     16.    300.     16.    313.     16.    291.     15.
    261.     14.    250.     14.    217.     13.    233.     14.    238.     14.
    248.     14.    265.     15.    287.     15.    264.     15.    250.     14.
    235.     14.    218.     13.    197.     13.    180.     12.    176.     12.
    150.     11.    128.     10.    120.     10.    107.      9.     96.      9.
    105.      9.    123.     10.    149.     11.    165.     12.    159.     11.
    176.     12.    194.     13.    188.     12.    178.     12.    167.     12.
    186.     12.    167.     12.    145.     11.    145.     11.    125.     10.
    115.     10.     95.      9.     84.      8.     82.      8.     82.      8.
     79.      8.     83.      8.     85.      8.     79.      8.     79.      8.
     86.      8.     89.      9.     82.      8.     86.      8.    100.      9.
    102.      9.     99.      9.    107.      9.     99.      9.     99.      9.
    123.     10.    140.     11.    175.     12.    257.     14.    337.     16.
    439.     19.    536.     21.    631.     22.    664.     23.    723.     24.
    819.     26.    904.     27.    995.     28.   1055.     29.   1156.     30.
   1238.     31.   1282.     32.   1233.     31.   1204.     31.   1121.     30.
   1039.     29.    970.     28.    922.     27.    845.     26.    781.     25.
    674.     23.    528.     20.    400.     18.    332.     16.    253.     14.
    205.     13.    165.     12.    124.     10.    115.     10.    120.     10.
    113.     10.     97.      9.     96.      9.     89.      9.    104.      9.
     83.      9.     78.      8.     80.      8.     75.      8.     87.      9.
     92.      9.     85.      9.     97.      9.     98.      9.     76.      8.
     92.      9.    108.     10.    124.     10.    135.     11.    166.     12.
    174.     12.    198.     13.    219.     14.    215.     14.    207.     13.
    225.     14.    225.     14.    232.     14.    218.     14.    215.     14.
    175.     12.    154.     11.    156.     12.    144.     11.    120.     10.
    110.     10.    101.      9.    101.      9.     98.      9.     99.      9.
    109.     10.    121.     10.    132.     11.    204.     13.    256.     15.
    305.     16.    415.     19.    456.     20.    507.     21.    536.     21.
    577.     22.    560.     22.    548.     22.    563.     22.    540.     21.
    530.     21.    498.     21.    441.     19.    353.     17.    304.     16.
    249.     15.    195.     13.    155.     12.    138.     11.    107.     10.
     90.      9.     90.      9.     82.      8.     92.      9.     95.      9.
     92.      9.     85.      9.     94.      9.     95.      9.     96.      9.
     91.      9.     83.      9.     80.      8.     81.      8.     78.      8.
     83.      8.     86.      9.     88.      9.     80.      8.     76.      8.
     95.      9.     85.      9.     72.      8.     73.      8.     90.      9.
     74.      8.     81.      8.     95.      9.     83.      8.     70.      8.
     74.      8.     83.      7.     71.      8.     80.      9.     87.      9.
     91.      9.    100.     10.    136.     11.    150.     12.    176.     13.
    217.     14.    250.     15.    252.     15.    292.     16.    281.     16.
    356.     18.    268.     16.    307.     17.    295.     16.    250.     15.
    296.     16.    258.     15.    240.     15.    182.     13.    180.     13.
    140.     11.    114.     10.    103.     10.    114.     10.    109.     10.
    100.     10.     84.      9.     87.      9.     73.      8.    101.     10.
     95.     10.     92.      9.     95.      9.    111.     10.    130.     11.
    111.     10.    109.     10.    109.     10.    118.     11.    120.     11.
    134.     11.    115.     10.    128.     11.    151.     12.    167.     12.
    197.     13.    230.     14.    277.     16.    315.     17.    337.     17.
    362.     18.    380.     18.    439.     20.    510.     21.    581.     23.
    752.     26.    850.     27.    975.     29.   1040.     30.   1173.     32.
   1211.     33.   1228.     33.   1211.     33.   1230.     33.   1254.     33.
   1183.     32.   1135.     32.   1205.     33.   1146.     32.   1054.     31.
    978.     29.    876.     28.    685.     25.    563.     22.    414.     19.
    357.     18.    274.     16.    194.     13.    172.     13.    152.     12.
    136.     11.    109.     10.    106.     10.    105.     10.    101.     10.
    117.     10.    150.     12.    175.     13.    197.     13.    244.     15.
    280.     16.    317.     17.    363.     18.    370.     18.    369.     18.
    383.     19.    377.     18.    408.     19.    383.     18.    431.     19.
    361.     17.    367.     18.    352.     17.    314.     16.    299.     16.
    256.     15.    212.     14.    163.     12.    154.     12.    144.     11.
    138.     11.    105.     10.     81.      9.    102.     10.     95.      9.
     86.      9.     92.      9.     77.      8.     89.      9.     99.      9.
     95.      9.    107.     10.    108.     10.    120.     10.    127.     11.
    128.     11.    113.     10.    113.     10.    123.     10.    141.     11.
    118.     10.    168.     12.    142.     11.    160.     12.    147.     11.
    149.     11.    142.     11.    142.     11.    140.     11.    133.     11.
    128.     11.    114.     10.    117.     10.    129.     11.     99.      9.
    107.     10.    105.     10.    106.     10.     92.      9.    120.     10.
    106.     10.    116.     10.    113.     10.    157.     12.    204.     13.
    257.     15.    370.     18.    416.     19.    483.     20.    547.     21.
    590.     22.    648.     23.    606.     22.    667.     24.    709.     24.
    710.     24.    686.     24.    703.     24.    681.     24.    765.     25.
    719.     24.    677.     24.    676.     24.    617.     23.    569.     22.
    479.     20.    419.     19.    389.     18.    355.     17.    273.     15.
    258.     15.    261.     15.    245.     14.    211.     13.    193.     13.
    159.     12.    173.     12.    142.     11.    126.     11.    126.     11.
    119.     10.    103.     10.     97.      9.    137.     11.    118.     10.
    125.     11.    174.     17.    173.     12.    199.     13.    218.     14.
    226.     14.    224.     14.    255.     15.    241.     14.    222.     14.
    239.     14.    244.     14.    273.     15.    245.     14.    229.     14.
    222.     14.    239.     14.    212.     13.    193.     13.    178.     12.
    170.     12.    151.     11.    133.     11.    110.     10.    112.     10.
     95.      9.     87.      9.    102.      9.     98.      9.     80.      8.
     82.      9.     82.      9.     73.      8.     91.      9.     93.      9.
     89.      9.     66.      8.     70.      8.     67.      8.     77.      8.
     85.      9.     72.      8.     87.      9.     81.      9.     86.      9.
     95.      9.     89.      9.    108.     10.    119.     10.    158.     12.
    175.     12.    185.     12.    187.     13.    185.     12.    195.     13.
    205.     13.    220.     14.    228.     14.    240.     14.    235.     14.
    251.     14.    256.     15.    267.     15.    249.     14.    282.     15.
    294.     16.    270.     15.    282.     15.    272.     15.    274.     15.
    286.     15.    298.     16.    352.     17.    393.     18.    415.     18.
    511.     20.    576.     22.    620.     22.    631.     23.    717.     24.
    718.     24.    758.     25.    723.     24.    731.     24.    760.     25.
    788.     25.    736.     24.    743.     25.    725.     24.    678.     23.
    684.     24.    676.     23.    657.     23.    652.     23.    596.     22.
    522.     21.    492.     20.    424.     19.    395.     18.    367.     17.
    309.     16.    314.     13.    334.     17.    330.     16.    338.     17.
    370.     17.    406.     18.    425.     19.    449.     19.    496.     20.
    542.     21.    563.     21.    584.     22.    610.     22.    653.     23.
    652.     23.    659.     23.    685.     23.    679.     23.    679.     23.
    654.     23.    658.     23.    626.     22.    628.     22.    621.     22.
    626.     22.    602.     22.    536.     21.    520.     20.    526.     21.
    459.     19.    432.     19.    414.     18.    377.     17.    365.     17.
    346.     17.    319.     16.    304.     16.    303.     16.    283.     15.
    246.     14.    221.     14.    205.     13.    213.     13.    214.     13.
    184.     12.    161.     12.    174.     12.    169.     12.    166.     12.
    166.     12.    176.     12.    152.     11.    142.     11.    158.     12.
    162.     12.    148.     11.    160.     12.    150.     11.    151.     11.
    155.     11.    141.     11.    141.     11.    142.     11.    151.     11.
    152.     11.    140.     11.    142.     11.    145.     11.    143.     11.
    146.     11.    135.     11.    135.     11.    120.     10.    123.     10.
    121.     10.    123.     10.    141.     11.    158.     12.    155.     11.
    165.     12.    189.     13.    170.     12.    174.     12.    177.     12.
    202.     13.    213.     13.    209.     13.    226.     14.    237.     14.
    230.     14.    231.     14.    248.     14.    255.     15.    257.     15.
    267.     15.    269.     15.    276.     15.    270.     15.    289.     15.
    296.     16.    289.     15.    289.     16.    275.     15.    271.     15.
    276.     15.    281.     15.    260.     15.    246.     14.    272.     15.
    237.     14.    220.     14.    244.     14.    240.     14.    211.     13.
    217.     14.    207.     13.    191.     13.    196.     13.    186.     13.
    190.     13.    183.     12.    166.     12.    183.     13.    185.     13.
    142.     11.    131.     11.    122.     10.    119.     10.    133.     11.
    114.     10.    110.     10.    104.     10.    101.      9.    106.     10.
    124.     10.    101.      9.     97.      9.     90.      9.    101.      9.
     94.      9.     91.      9.     92.      9.    109.     10.    108.     10.
    115.     10.    105.     10.     98.      9.    110.     10.    106.     10.
     86.      9.     96.      9.     98.      9.     86.      9.     96.      9.
     96.      9.    102.     10.     91.      9.    101.      9.     97.      9.
     83.      9.     98.      9.    115.     10.    124.     10.    102.     10.
    109.     10.    103.     10.    118.     10.    109.     10.    102.     10.
    119.     10.    106.     10.    110.     10.    119.     10.    119.     10.
    112.     10.    101.      9.    109.     10.    126.     10.    130.     11.
    120.     10.    108.     10.    111.     10.    113.     10.    113.     10.
    121.     10.    127.     11.    122.     10.    126.     10.    133.     11.
    132.     11.    135.     11.    139.     11.    124.     10.    147.     11.
    143.     11.    142.     11.    142.     11.    144.     11.    164.     12.
    144.     11.    140.     11.    162.     12.    158.     12.    148.     12.
    150.     12.    165.     12.    156.     12.    161.     12.    161.     12.
    178.     13.    179.     13.    176.     13.    180.     13.    164.     12.
    172.     12.    193.     13.    226.     14.    241.     15.    249.     15.
    268.     15.    261.     15.    277.     15.    316.     16.    320.     17.
    353.     17.    355.     17.    376.     18.    387.     18.    401.     18.
    425.     19.    464.     20.    419.     19.    424.     19.    461.     20.
    438.     19.    436.     19.    434.     19.    441.     19.    477.     20.
    476.     20.    465.     20.    459.     20.    474.     20.    467.     20.
    422.     19.    419.     19.    432.     19.    430.     19.    413.     19.
    389.     18.    394.     18.    376.     18.    386.     18.    358.     17.
    320.     17.    295.     16.    282.     16.    260.     15.    229.     14.
    210.     14.    186.     13.    190.     13.    168.     12.    162.     12.
    155.     12.    143.     12.    130.     11.    140.     11.    137.     11.
    124.     11.    115.     10.    113.     10.    110.     10.    103.     10.
    108.     10.    111.     10.    106.     10.    110.     10.    108.     10.
    111.     10.    114.     10.    122.     11.    108.     10.    114.     10.
    137.     11.    141.     11.    131.     11.    129.     11.    135.     11.
    135.     11.    156.     12.    163.     12.    174.     13.    196.     13.
    216.     14.    220.     14.    212.     14.    219.     14.    245.     15.
    239.     14.    239.     12.    238.     15.    273.     16.    270.     16.
    281.     16.    294.     16.    274.     16.    268.     16.    285.     16.
    279.     16.    295.     16.    302.     17.    318.     17.    323.     17.
    316.     17.    306.     17.    319.     17.    318.     17.    314.     17.
    328.     17.    335.     17.    353.     18.    372.     18.    375.     18.
    379.     18.    388.     19.    439.     20.    447.     20.    413.     19.
    416.     19.    424.     19.    435.     20.    422.     19.    445.     20.
    458.     20.    421.     19.    418.     19.    444.     20.    415.     19.
    423.     19.    433.     19.    431.     19.    432.     19.    441.     20.
    447.     20.    445.     20.    424.     19.    425.     19.    415.     19.
    421.     19.    440.     20.    411.     19.    397.     19.    427.     19.
    440.     20.    403.     19.    358.     18.    361.     18.    364.     18.
    354.     18.    341.     17.    362.     18.    346.     18.    303.     17.
    290.     16.    283.     16.    264.     16.    266.     16.    245.     15.
    223.     15.    206.     14.    197.     14.    190.     14.    195.     14.
    177.     13.    163.     13.    154.     13.    156.     13.    159.     13.
    159.     13.    157.     13.    144.     12.    145.     12.    143.     12.
    138.     12.    154.     12.    160.     13.    147.     12.    144.     12.
    148.     12.    138.     12.    128.     12.    130.     12.    136.     12.
    131.     12.    122.     11.    131.     12.    144.     12.    154.     13.
    149.     12.    128.     13.    127.     13.    122.     13.    140.     13.
    143.     14.    138.     13.    127.     13.    136.     13.    142.     13.
    153.     14.    148.     14.    128.     13.    124.     13.    130.     13.
    147.     14.    166.     14.    155.     14.    144.     14.    142.     13.
    153.     14.    172.     14.    176.     15.    199.     15.    212.     15.
    202.     15.    217.     16.    235.     16.    230.     16.    225.     16.
    268.     17.    278.     17.    292.     17.    291.     17.    287.     17.
    299.     18.    315.     18.    338.     18.    323.     18.    309.     18.
    322.     18.    335.     18.    332.     18.    351.     19.    361.     19.
    382.     19.    369.     19.    369.     19.    361.     19.    375.     19.
    387.     20.    419.     20.    406.     20.    413.     20.    410.     20.
    453.     21.    452.     21.    467.     21.    474.     21.    458.     21.
    438.     21.    485.     21.    511.     22.    477.     21.    480.     21.
    490.     22.    507.     22.    491.     22.    475.     21.    449.     21.
    491.     22.    501.     22.    471.     21.    475.     21.    480.     21.
    453.     21.    475.     21.    465.     21.    429.     20.    432.     20.
    434.     20.    435.     20.    411.     20.    420.     20.    415.     20.
    415.     20.    410.     20.    421.     20.    422.     20.    451.     21.
    393.     20.    385.     19.    408.     20.    400.     20.    382.     19.
    425.     20.    428.     20.    395.     20.    393.     20.    393.     20.
    421.     20.    413.     30.    407.     29.    421.     30.    435.     30.
    382.     29.    448.     31.    451.     31.    475.     31.    470.     31.
    510.     32.    495.     32.    509.     32.    550.     33.    562.     33.
    509.     32.    525.     32.    516.     32.    514.     32.    597.     34.
    620.     35.    622.     35.    663.     36.    665.     36.    642.     35.
    677.     36.    754.     38.    726.     37.    771.     38.    741.     37.
    789.     38.    833.     39.    872.     40.    870.     40.    902.     41.
    886.     40.    926.     41.    930.     41.    905.     41.    934.     41.
    973.     42.    951.     42.    957.     42.    941.     41.    921.     41.
    989.     42.    976.     42.    950.     42.    984.     42.    993.     42.
   1058.     44.   1103.     45.   1136.     45.   1051.     44.   1032.     43.
   1089.     44.   1093.     44.   1100.     44.   1070.     44.   1090.     44.
   1137.     45.   1122.     45.   1120.     45.   1181.     46.   1147.     45.
   1137.     45.   1159.     46.   1149.     45.   1094.     44.   1083.     44.
   1063.     44.   1053.     44.   1126.     45.   1079.     44.   1057.     44.
   1072.     44.    990.     42.   1008.     43.   1010.     43.   1016.     43.
    978.     42.    916.     41.    968.     42.    973.     42.    907.     41.
    869.     40.    882.     40.    865.     40.    911.     41.    937.     41.
    842.     40.    817.     39.    835.     39.    850.     40.    775.     38.
    804.     39.    775.     38.    786.     38.    761.     38.    746.     38.
    711.     37.      0.      0.      0.      0.      0.      0.      0.      0.
