lufmo LuFeMnO3/William, 5 K                                            lufmo001 
Instrument parameter file:lufmo001.inst                                         
BANK  1     3266     654 CONST     300.00      5.00 0 0 ESD                     
    550.     46.    531.     45.    583.     47.    583.     47.    545.     45.
    587.     48.    480.     42.    391.     37.    531.     45.    419.     38.
    503.     43.    452.     40.    452.     40.    415.     38.    419.     38.
    499.     43.    494.     43.    424.     39.    410.     38.    415.     38.
    466.     41.    396.     37.    447.     40.    424.     39.    359.     35.
    336.     33.    443.     40.    466.     41.    387.     36.    350.     34.
    326.     32.    345.     34.    396.     37.    405.     38.    354.     34.
    387.     36.    363.     35.    396.     37.    363.     35.    298.     30.
    401.     37.    363.     35.    373.     36.    303.     31.    382.     36.
    298.     30.    363.     35.    345.     34.    387.     36.    368.     35.
    345.     34.    326.     32.    363.     35.    359.     35.    326.     32.
    373.     36.    308.     31.    312.     31.    373.     36.    270.     28.
    312.     31.    331.     33.    308.     31.    336.     33.    345.     34.
    312.     31.    363.     35.    256.     27.    294.     30.    326.     32.
    317.     32.    284.     29.    345.     34.    317.     32.    200.     21.
    308.     31.    303.     31.    322.     32.    294.     30.    233.     25.
    317.     32.    294.     30.    308.     31.    289.     29.    289.     29.
    326.     32.    284.     29.    345.     34.    275.     28.    261.     27.
    303.     31.    284.     29.    252.     26.    261.     27.    252.     26.
    284.     29.    242.     26.    270.     28.    280.     29.    303.     31.
    263.     19.    253.     18.    305.     21.    275.     20.    275.     20.
    298.     21.    317.     22.    265.     19.    301.     21.    276.     20.
    276.     20.    319.     22.    281.     20.    258.     19.    291.     21.
    239.     17.    263.     19.    310.     22.    289.     20.    281.     20.
    277.     20.    269.     19.    269.     19.    252.     18.    246.     18.
    230.     17.    259.     19.    262.     19.    270.     19.    241.     18.
    245.     18.    229.     17.    241.     18.    242.     18.    245.     18.
    241.     18.    228.     17.    252.     18.    227.     17.    211.     16.
    242.     18.    274.     20.    227.     17.    245.     18.    250.     18.
    269.     19.    296.     21.    264.     19.    248.     18.    236.     17.
    210.     15.    249.     18.    190.     14.    243.     18.    255.     18.
    230.     17.    268.     19.    208.     15.    239.     17.    231.     17.
    250.     18.    211.     16.    214.     16.    221.     16.    245.     18.
    253.     18.    216.     22.    239.     24.    218.     22.    205.     21.
    219.     22.    209.     21.    226.     23.    242.     24.    239.     24.
    200.     20.    240.     24.    218.     22.    244.     25.    222.     23.
    259.     26.    203.     21.    219.     22.    233.     24.    215.     22.
    233.     24.    226.     23.    231.     23.    269.     27.    278.     27.
    265.     26.    275.     27.    250.     25.    275.     27.    267.     26.
    227.     23.    245.     25.    256.     26.    259.     26.    223.     23.
    247.     19.    234.     18.    220.     17.    193.     15.    198.     15.
    236.     18.    219.     17.    230.     18.    237.     18.    240.     18.
    214.     16.    252.     19.    266.     20.    269.     20.    236.     18.
    233.     18.    219.     17.    222.     17.    220.     17.    238.     18.
    225.     17.    209.     16.    219.     17.    211.     16.    216.     17.
    222.     17.    219.     17.    201.     15.    209.     16.    198.     15.
    198.     15.    225.     17.    238.     18.    227.     17.    231.     18.
    222.     17.    185.     14.    231.     18.    236.     18.    238.     18.
    258.     19.    209.     16.    211.     16.    223.     17.    218.     17.
    238.     18.    242.     18.    233.     18.    216.     17.    208.     16.
    236.     18.    205.     16.    219.     17.    208.     16.    230.     18.
    220.     17.    198.     16.    240.     18.    225.     17.    197.     16.
    209.     16.    215.     17.    220.     17.    227.     18.    225.     17.
    206.     16.    197.     24.    224.     18.    236.     19.    214.     18.
    221.     18.    228.     18.    231.     19.    215.     18.    215.     18.
    195.     16.    194.     16.    226.     18.    225.     18.    251.     20.
    212.     18.    222.     18.    209.     17.    222.     18.    228.     18.
    206.     17.    203.     17.    192.     16.    204.     17.    198.     17.
    195.     16.    210.     17.    199.     17.    176.     15.    206.     17.
    188.     16.    185.     16.    199.     17.    194.     16.    191.     16.
    193.     16.    206.     17.    207.     17.    207.     17.    198.     17.
    208.     17.    203.     17.    194.     16.    215.     18.    176.     15.
    190.     16.    197.     17.    205.     17.    198.     17.    199.     17.
    180.     15.    192.     16.    207.     17.    218.     18.    220.     18.
    219.     18.    220.     18.    228.     18.    202.     17.    234.     19.
    204.     17.    186.     16.    187.     16.    211.     17.    215.     18.
    175.     15.    197.     16.    179.     15.    179.     15.    201.     17.
    210.     17.    213.     18.    197.     17.    181.     15.    191.     16.
    188.     16.    201.     17.    190.     16.    179.     15.    199.     17.
    198.     17.    197.     17.    249.     20.    212.     17.    220.     18.
    265.     20.    274.     21.    252.     20.    245.     19.    230.     19.
    211.     17.    189.     16.    188.     16.    210.     17.    188.     16.
    190.     16.    168.     15.    183.     16.    184.     16.    180.     15.
    210.     17.    197.     16.    184.     16.    191.     16.    180.     15.
    169.     15.    190.     16.    182.     16.    186.     16.    180.     15.
    171.     15.    217.     18.    193.     16.    184.     16.    184.     16.
    168.     15.    192.     16.    144.     13.    183.     16.    191.     16.
    164.     14.    186.     16.    196.     16.    209.     17.    181.     15.
    175.     15.    183.     16.    161.     14.    179.     15.    176.     15.
    191.     16.    171.     15.    187.     16.    191.     16.    208.     17.
    179.     15.    222.     18.    232.     18.    211.     17.    207.     17.
    194.     16.    188.     16.    198.     16.    210.     17.    194.     16.
    187.     16.    194.     16.    190.     16.    195.     16.    203.     17.
    166.     15.    196.     16.    224.     18.    206.     17.    204.     17.
    187.     16.    212.     17.    197.     16.    176.     15.    201.     17.
    198.     17.    182.     15.    172.     15.    187.     16.    209.     17.
    191.     16.    196.     16.    176.     15.    186.     16.    180.     15.
    189.     16.    192.     16.    203.     17.    228.     18.    277.     21.
    378.     25.    512.     29.    856.     39.   1423.     51.   2221.     64.
   3112.     77.   3831.     85.   3742.     84.   3065.     76.   2112.     63.
   1361.     50.    723.     35.    405.     26.    263.     20.    225.     18.
    186.     16.    213.     17.    185.     16.    185.     16.    161.     14.
    166.     15.    170.     15.    182.     15.    182.     16.    165.     14.
    186.     16.    187.     16.    163.     15.    179.     16.    181.     16.
    168.     15.    168.     15.    168.     15.    163.     15.    155.     14.
    178.     16.    185.     16.    194.     17.    180.     16.    187.     16.
    199.     17.    175.     15.    171.     15.    175.     15.    186.     16.
    180.     16.    161.     15.    150.     14.    171.     15.    154.     14.
    176.     16.    167.     15.    159.     14.    171.     15.    172.     15.
    166.     15.    171.     15.    167.     15.    154.     14.    151.     14.
    162.     15.    158.     14.    169.     15.    154.     14.    163.     15.
    163.     15.    148.     14.    156.     14.    181.     16.    165.     15.
    165.     15.    196.     17.    157.     14.    159.     14.    173.     15.
    184.     16.    185.     16.    174.     15.    205.     17.    222.     18.
    178.     16.    175.     16.    170.     15.    148.     14.    172.     15.
    162.     15.    148.     14.    153.     14.    153.     14.    170.     15.
    165.     15.    168.     15.    172.     15.    168.     15.    149.     14.
    153.     14.    159.     14.    158.     14.    162.     15.    188.     16.
    181.     16.    152.     14.    133.     13.    158.     14.    153.     14.
    149.     14.    156.     14.    160.     15.    154.     14.    177.     16.
    174.     15.    146.     14.    153.     14.    160.     15.    161.     15.
    183.     16.    220.     18.    259.     20.    343.     24.    529.     30.
    746.     36.   1069.     44.   1254.     48.   1217.     47.    995.     42.
    673.     34.    453.     27.    296.     21.    212.     17.    154.     14.
    140.     13.    135.     13.    141.     13.    154.     14.    135.     13.
    149.     14.    172.     15.    158.     14.    139.     13.    135.     13.
    169.     15.    164.     15.    128.     12.    148.     14.    133.     12.
    151.     14.    149.     14.    149.     14.    155.     14.    135.     13.
    140.     13.    141.     13.    173.     15.    174.     15.    163.     15.
    147.     14.    144.     13.    147.     14.    165.     15.    161.     14.
    182.     16.    179.     16.    160.     14.    168.     15.    162.     15.
    160.     14.    149.     14.    142.     13.    167.     15.    155.     14.
    146.     14.    142.     13.    153.     14.    135.     13.    123.     12.
    142.     13.    140.     13.    131.     13.    164.     15.    165.     15.
    151.     14.    147.     14.    146.     13.    135.     13.    132.     13.
    144.     13.    132.     13.    127.     12.    126.     12.    137.     13.
    154.     14.    144.     13.    143.     13.    150.     14.    163.     15.
    150.     14.    151.     14.    180.     16.    195.     17.    174.     15.
    170.     15.    146.     14.    148.     14.    147.     14.    153.     14.
    154.     14.    124.     12.    124.     12.    137.     13.    146.     14.
    136.     13.    143.     13.    155.     14.    165.     15.    145.     14.
    139.     13.    143.     13.    142.     13.    148.     14.    150.     14.
    139.     13.    139.     13.    136.     13.    147.     14.    163.     15.
    160.     14.    152.     11.    129.     12.    138.     13.    132.     12.
    136.     12.    131.     12.    142.     13.    130.     12.    127.     12.
    126.     12.    139.     13.    132.     12.    131.     12.    146.     13.
    141.     13.    136.     12.    138.     13.    155.     14.    156.     14.
    139.     13.    144.     13.    128.     12.    125.     12.    133.     12.
    127.     12.    120.     11.    124.     12.    129.     12.    139.     13.
    124.     12.    125.     12.    140.     13.    133.     12.    138.     13.
    138.     13.    128.     12.    136.     12.    149.     13.    123.     12.
    145.     13.    150.     13.    141.     13.    139.     13.    139.     13.
    133.     12.    138.     13.    147.     13.    139.     13.    158.     14.
    172.     14.    226.     17.    341.     22.    511.     27.    753.     33.
    999.     38.   1269.     43.   1235.     43.   1010.     38.    705.     32.
    458.     25.    274.     19.    213.     16.    154.     13.    149.     13.
    129.     12.    143.     13.    146.     13.    155.     14.    129.     12.
    121.     12.    127.     12.    132.     12.    116.     11.    134.     12.
    144.     13.    116.     11.    119.     11.    113.     11.    124.     12.
    132.     12.    159.     14.    197.     16.    270.     19.    373.     23.
    525.     27.    701.     32.    779.     34.    789.     34.    663.     31.
    482.     26.    359.     22.    271.     19.    186.     15.    152.     13.
    141.     13.    131.     12.    146.     13.    141.     13.    132.     12.
    130.     12.    136.     12.    148.     13.    121.     11.    130.     12.
    194.     15.    265.     18.    424.     23.    713.     30.   1226.     40.
   1983.     51.   3012.     63.   4314.     76.   5774.     88.   7088.     98.
   7282.     99.   6325.     92.   4861.     81.   3156.     65.   1710.     47.
    976.     35.    460.     24.    258.     17.    160.     13.    142.     12.
    136.     12.    125.     11.    131.     12.    133.     12.    128.     12.
    143.     12.    150.     13.    137.     12.    131.     12.    148.     13.
    117.     11.    134.     12.    126.     11.    123.     11.    131.     12.
    119.     11.    110.     10.    116.     11.    119.     11.    128.     11.
    137.     12.    145.     12.    136.     12.    121.     11.    132.     12.
    119.     11.    125.     11.    119.     11.    125.     11.    123.     11.
    133.     12.    118.     11.    126.     11.    126.     11.    116.     11.
    116.     11.    110.     10.    129.     12.    124.     11.    116.     11.
    109.     10.    116.     11.    126.     11.    120.     11.    131.     12.
    138.     12.    140.     12.    124.     11.    130.     12.    133.     12.
    113.     11.    126.     11.    136.     12.    133.     12.    119.     11.
    110.     10.    124.     11.    118.     11.    117.     11.    119.     11.
    123.     11.    124.     11.    121.     11.    149.     13.    156.     13.
    187.     15.    228.     16.    297.     19.    325.     20.    330.     20.
    330.     20.    248.     17.    226.     16.    184.     14.    146.     13.
    141.     12.    118.     11.    119.     11.    110.     10.    104.     10.
    119.     11.    120.     11.    136.     12.    130.     11.    113.     10.
    118.     11.    107.     10.    109.     10.    118.     11.    126.     11.
    134.     12.    135.     12.    133.     12.    120.     11.    119.     11.
    145.     12.    153.     12.    135.     12.    130.     11.    138.     12.
    133.     11.    134.     12.    135.     12.    135.     12.    117.     11.
    116.     11.    124.     11.    116.     11.    129.     11.    128.     11.
    141.     12.    154.     13.    194.     14.    282.     17.    438.     22.
    626.     27.    750.     29.    908.     32.    972.     34.   1035.     35.
    996.     34.    849.     31.    636.     27.    448.     22.    279.     17.
    224.     15.    153.     13.    133.     12.    125.     11.    121.     11.
    123.     11.    122.     11.    124.     11.    124.     11.    104.     10.
    125.     11.    126.     11.    125.     11.    120.     11.    124.     11.
    133.     12.    143.     12.    120.     11.    115.     11.    114.     10.
    123.     11.    119.     11.    120.     11.    116.     11.    107.     10.
    116.     11.    111.     10.    132.     11.    125.     11.    123.     11.
    124.     11.    130.     11.    125.     11.    135.     12.    142.     12.
    137.     12.    135.     12.    142.     12.    140.     12.    123.     11.
    131.     11.    119.     11.    106.     10.    108.     10.    127.     11.
    121.     11.    132.     11.    119.     11.    114.     10.    118.     11.
    126.     11.    123.     11.    119.     10.    134.     11.    113.     10.
    124.     11.    112.     10.    127.     11.    146.     12.    197.     14.
    289.     17.    421.     21.    707.     27.   1120.     34.   1533.     40.
   1780.     43.   1770.     43.   1508.     40.   1181.     35.    853.     30.
    555.     24.    320.     18.    209.     14.    181.     13.    136.     11.
    144.     12.    159.     12.    169.     13.    224.     15.    325.     18.
    542.     23.    902.     30.   1239.     36.   1500.     39.   1640.     41.
   1600.     41.   1313.     37.    941.     31.    595.     25.    430.     21.
    259.     16.    176.     13.    150.     12.    154.     12.    116.     10.
    133.     11.    111.     10.    118.     10.    114.     10.    131.     11.
    131.     11.    119.     10.    113.     10.    119.     10.    115.     10.
    128.     11.    118.     10.    124.     11.    122.     11.    119.     10.
    119.     10.    112.     10.    110.     10.    112.     10.    114.     10.
    127.     11.    129.     11.    130.     11.    136.     11.    119.     10.
    123.     11.    120.     10.     99.      9.    123.     11.    134.     11.
    130.     11.    155.     12.    141.     12.    137.     11.    128.     11.
    116.     10.    129.     11.    127.     11.    126.     11.    123.     11.
    129.     11.    122.     11.    134.     11.    112.     10.    110.     10.
    127.     11.    116.     10.    118.     10.    108.     10.    108.     10.
    136.     11.    121.     11.    114.     10.    114.     10.    113.     10.
    125.     11.    106.     10.    123.     10.    107.     10.    120.     10.
    107.     10.    113.     10.    108.     10.    108.     10.    126.     11.
    121.     10.    111.     10.    107.     10.    123.     10.     98.      9.
    113.     10.    114.     10.    104.      9.    123.     10.    113.     10.
    111.     10.    100.      9.    141.     11.    178.     13.    210.     14.
    280.     16.    350.     18.    388.     19.    428.     20.    401.     20.
    384.     19.    307.     17.    223.     14.    184.     13.    167.     12.
    136.     11.    131.     11.    116.     10.    121.     10.    127.     11.
    113.     10.    145.     11.    190.     13.    234.     15.    314.     17.
    414.     20.    459.     21.    456.     21.    446.     21.    364.     19.
    264.     16.    232.     15.    172.     13.    151.     12.    149.     12.
    121.     10.    124.     10.    117.     10.     97.      9.    123.     10.
    133.     11.    124.     10.    166.     12.    267.     16.    512.     22.
    922.     30.   1525.     39.   2374.     49.   3110.     56.   3827.     62.
   3813.     62.   3469.     59.   2912.     54.   2119.     46.   1320.     36.
    842.     29.    468.     21.    276.     16.    192.     13.    145.     11.
    139.     11.    107.     10.    112.     10.    125.     11.    115.     10.
    117.     10.    118.     10.    109.     10.    122.     10.    124.     10.
    113.     10.    113.     10.    112.     10.    118.     10.    129.     11.
    130.     11.    144.     11.    121.     10.    121.     10.    123.     10.
    144.     11.    128.     10.    133.     11.    133.     11.    139.     11.
    144.     11.    175.     12.    235.     14.    305.     16.    497.     21.
    744.     26.   1073.     31.   1424.     36.   1663.     39.   1774.     40.
   1692.     40.   1422.     36.   1138.     32.    790.     27.    533.     22.
    365.     18.    235.     14.    176.     12.    138.     11.    143.     11.
    125.     10.    133.     11.    133.     11.    133.     11.    106.      9.
    103.      9.    107.      9.    109.     10.    129.     11.    104.      9.
    113.     10.    123.     10.    100.      9.    120.     10.     97.      9.
    111.     10.    113.     10.    120.     10.    110.     10.    106.      9.
    102.      9.    104.      9.    120.     10.    114.     10.    121.     10.
    126.     10.    147.     11.    189.     13.    255.     15.    294.     16.
    328.     17.    354.     18.    333.     17.    321.     17.    274.     16.
    234.     14.    184.     13.    182.     13.    191.     13.    206.     13.
    331.     17.    485.     21.    714.     26.    929.     29.   1177.     33.
   1369.     36.   1401.     36.   1446.     37.   1305.     35.   1167.     33.
   1027.     31.    874.     28.    712.     26.    617.     24.    420.     19.
    349.     18.    243.     15.    191.     13.    153.     12.    128.     10.
    126.     10.    111.     10.    106.      9.    107.      9.    105.      9.
    115.     10.    110.     10.    111.     10.    113.     10.    116.     10.
    111.     10.    109.     10.    112.     10.    102.      9.    110.     10.
    100.      9.    106.     13.    106.      9.    118.     10.    111.      9.
    103.      9.    105.      9.    118.     10.    102.      9.     98.      9.
    114.     10.    101.      9.     97.      9.     92.      9.     98.      9.
    108.      9.    108.      9.     97.      9.    102.      9.    116.     10.
    120.     10.    106.      9.    115.     10.    103.      9.    115.     10.
    115.     10.    115.     10.    117.     10.    111.      9.    128.     10.
    175.     12.    259.     15.    352.     17.    490.     20.    634.     23.
    723.     25.    749.     25.    736.     25.    719.     25.    597.     22.
    445.     19.    326.     16.    250.     14.    190.     12.    170.     12.
    182.     12.    297.     16.    502.     20.    809.     26.   1179.     31.
   1575.     36.   1884.     40.   2087.     42.   2018.     41.   1851.     39.
   1586.     36.   1252.     32.    890.     27.    585.     22.    382.     18.
    255.     14.    191.     12.    166.     12.    174.     12.    215.     13.
    323.     16.    514.     21.    729.     25.    903.     27.   1031.     29.
   1106.     30.   1112.     31.    996.     29.    851.     27.    685.     24.
    492.     20.    340.     17.    238.     14.    193.     13.    163.     11.
    135.     10.    123.     10.    119.     10.    104.      9.    116.     10.
    106.      9.    108.      9.    107.      9.     98.      9.     90.      8.
     96.      9.     99.      9.     93.      9.     91.      8.    105.      9.
    110.      9.     98.      9.     94.      9.     92.      9.    102.      9.
    106.      9.     94.      9.     99.      9.    114.     10.    110.      9.
    105.      9.     92.      9.    106.      9.    108.      9.    103.      9.
     97.      9.    111.      9.    109.      9.    105.      9.    106.      9.
    104.      9.     97.      9.     95.      9.    104.      9.    110.      9.
    106.      9.    101.      9.    108.      9.    102.      9.    104.      9.
    108.      9.    113.     10.    123.     10.    117.     10.    143.     11.
    146.     11.    143.     11.    168.     12.    151.     11.    151.     11.
    151.     11.    156.     11.    140.     11.    124.     10.    127.     10.
    125.     10.    113.     10.    105.      9.    151.     11.    188.     12.
    257.     15.    459.     20.    789.     26.   1431.     35.   2301.     44.
   3551.     55.   4651.     63.   5695.     70.   6309.     73.   6543.     75.
   6445.     74.   5733.     70.   4691.     63.   3647.     56.   2528.     46.
   1667.     37.   1001.     29.    557.     22.    339.     17.    262.     15.
    168.     12.    132.     10.    125.     10.    102.      9.    110.      9.
    102.      9.     95.      9.    115.     10.    106.      9.    108.      9.
    108.      9.    119.     10.    103.      9.    109.      9.     98.      9.
     97.      9.    103.      9.    117.     10.    120.     10.    111.      9.
    108.      9.    108.      9.    113.     10.    108.      9.    109.      9.
    109.      9.    117.     10.    108.      9.    101.      9.     98.      9.
    102.      9.     95.      9.    105.      9.    112.     10.     95.      9.
    100.      9.    117.      8.    102.      9.    100.      9.     94.      9.
     98.      9.    117.     10.    107.      9.    108.      9.    109.      9.
    111.     10.     99.      9.    103.      9.     98.      9.     95.      9.
     96.      9.    102.      9.    102.      9.    110.      9.     99.      9.
     95.      9.    116.     10.    107.      9.    107.      9.    103.      9.
    101.      9.    115.     10.    106.      9.    103.      9.    119.     10.
    115.     10.    102.      9.    121.     10.    120.     10.    120.     10.
    112.     10.    105.      9.     95.      9.     97.      9.    102.      9.
    107.      9.    102.      9.    109.      9.    114.     10.    103.      9.
     86.      8.    101.      9.    115.     10.    109.      9.    103.      9.
    104.      9.    103.      9.     99.      9.    118.     10.    206.     13.
    321.     16.    481.     20.    710.     24.    961.     28.   1233.     32.
   1435.     35.   1659.     37.   1738.     38.   1739.     38.   1661.     37.
   1451.     35.   1238.     32.    896.     27.    739.     25.    479.     20.
    353.     17.    241.     14.    196.     13.    158.     11.    123.     10.
    114.     10.    106.      9.    107.      9.    109.      9.    100.      9.
     97.      9.    110.     10.    109.      9.    118.     10.    103.      9.
     95.      9.     88.      8.     92.      9.    108.      9.    105.      9.
    105.      9.    105.      9.    101.      9.     98.      9.     95.      9.
     85.      8.     94.      9.    113.     10.     93.      9.    108.      9.
    104.      9.     90.     12.     97.      9.    107.      9.    118.     10.
    114.      9.    102.      9.    109.      9.    100.      9.    115.     10.
    123.     10.    118.     10.    142.     11.    162.     11.    164.     11.
    189.     12.    189.     12.    183.     12.    177.     12.    161.     11.
    152.     11.    141.     11.    122.     10.    118.     10.    103.      9.
    114.     10.     90.      8.     99.      9.    109.      9.    103.      9.
     84.      8.     91.      8.    113.      9.    104.      9.     96.      9.
     95.      9.    104.      9.    107.      9.    118.     10.     99.      9.
    105.      9.    113.      9.     97.      9.    101.      9.     98.      9.
     90.      8.    105.      9.    142.     11.    209.     13.    275.     15.
    343.     16.    436.     19.    484.     20.    578.     21.    632.     22.
    623.     22.    619.     22.    604.     22.    570.     21.    503.     20.
    406.     18.    341.     16.    263.     14.    219.     13.    155.     11.
    126.     10.    106.      9.     97.      9.     95.      9.     91.      8.
     89.      8.     82.      8.    109.      9.    103.      9.    100.      9.
    109.      9.     95.      9.    107.      9.    112.      9.    100.      9.
     87.      8.    107.      9.    108.      9.    103.      9.     97.      9.
     79.      8.    101.      9.    105.      9.     99.      9.    101.      9.
     94.      9.     92.      9.     95.      9.    101.      9.     90.      8.
     90.      8.     95.      9.     94.      9.     90.      8.    100.      9.
     98.      9.     97.      9.    107.      9.    113.     10.     91.      9.
     82.      8.     88.      8.     87.      8.     91.      9.     90.      9.
     84.      8.     90.      9.    107.      9.     99.      9.     93.      9.
     92.      9.    102.      9.     91.      9.    104.      9.     88.      8.
     82.      8.    106.      9.    118.     10.    116.     10.    145.     11.
    187.     12.    216.     13.    255.     14.    290.     15.    312.     16.
    384.     18.    394.     18.    406.     18.    436.     19.    441.     19.
    423.     18.    359.     17.    348.     17.    275.     15.    264.     15.
    251.     14.    236.     14.    292.     15.    397.     18.    613.     22.
    857.     26.   1211.     31.   1589.     36.   1944.     39.   2215.     42.
   2472.     45.   2632.     46.   2690.     46.   2711.     47.   2612.     46.
   2334.     43.   2046.     41.   1704.     37.   1270.     32.    891.     27.
    644.     23.    457.     19.    299.     15.    242.     14.    167.     12.
    117.     10.    130.     10.    104.      9.     96.      9.    131.     10.
    100.      9.     98.      9.    114.     10.    101.      9.    109.      9.
    102.      9.     91.      9.    109.      9.     91.      9.    103.      9.
    109.      9.     91.      9.     93.      9.     87.      8.     98.      9.
     89.      8.     95.      9.     93.      9.    103.      9.    123.     10.
    131.     10.    179.     12.    274.     15.    372.     17.    572.     21.
    762.     25.    956.     28.   1116.     30.   1177.     31.   1395.     33.
   1496.     35.   1509.     35.   1542.     36.   1505.     36.   1409.     35.
   1210.     32.    975.     29.    787.     26.    577.     22.    489.     20.
    371.     18.    249.     15.    235.     14.    181.     12.    153.     11.
    132.     11.    128.     10.     83.      8.    106.     10.    119.     10.
    107.     10.    119.     10.    110.     10.     92.      9.    116.     10.
    115.     10.    108.     10.    120.     10.    118.     10.    110.     10.
    130.     11.    133.     11.    121.     10.    144.     11.    172.     12.
    190.     13.    283.     16.    397.     18.    534.     21.    652.     24.
    805.     26.    987.     29.   1012.     29.   1103.     31.   1221.     32.
   1165.     32.   1219.     32.   1181.     32.   1188.     32.   1013.     29.
    850.     27.    694.     24.    534.     21.    413.     19.    347.     17.
    270.     15.    201.     13.    168.     12.    142.     11.    122.     10.
     89.      9.    108.     10.     84.      9.     92.      9.     87.      9.
     93.      9.     93.      9.     94.      9.    100.      9.     85.      9.
     99.      9.     91.      9.     92.      9.     97.      9.     80.      8.
    103.      9.     92.      9.     94.      9.     98.      9.     90.      9.
    107.     10.    114.     10.    112.     10.    116.     10.    119.     10.
    144.     11.    163.     12.    160.     12.    174.     12.    176.     12.
    225.     14.    230.     14.    262.     15.    247.     15.    271.     15.
    310.     16.    283.     16.    277.     15.    273.     15.    281.     16.
    268.     15.    257.     15.    238.     14.    233.     14.    223.     14.
    199.     13.    176.     12.    170.     12.    144.     11.    124.     10.
    108.     10.    101.      9.    108.     10.    113.     10.    111.     10.
     84.      9.     96.      9.     91.      9.     94.      9.     91.      9.
    101.      9.    116.     10.    134.     11.    186.     13.    239.     14.
    358.     18.    455.     20.    510.     21.    586.     23.    663.     24.
    730.     25.    776.     26.    855.     27.    895.     28.    855.     27.
    878.     28.    789.     26.    744.     25.    671.     24.    528.     21.
    425.     19.    326.     17.    250.     15.    193.     13.    164.     12.
    150.     11.    119.     10.    100.      9.    120.     10.    100.      9.
     94.      9.    103.      9.     99.      9.     89.      9.     97.      9.
    101.      9.     90.      9.     99.      9.    112.     10.     91.      9.
     92.      9.     91.      9.     93.      9.     97.      9.     92.      9.
    104.     10.     94.      9.     99.      9.    109.     10.     95.      9.
     94.      9.     91.      9.     87.      9.    101.      9.    100.      9.
     95.      9.     89.      9.     86.      9.     86.      9.     86.      9.
     92.      9.    101.      9.     95.      9.     92.      9.    110.     10.
    107.     10.    115.     10.    105.     10.    124.     10.    114.     10.
    110.     10.    118.     10.    126.     10.    122.     10.    130.     11.
    140.     11.    126.     10.    128.     11.    113.     10.    129.     11.
    115.     10.    106.     10.    106.      9.    109.      9.     93.      9.
     97.      9.    110.      9.    104.      9.     89.      8.    101.      9.
    104.      9.    102.      9.     94.      9.     99.      9.    101.      9.
    112.      9.    106.      9.    113.     10.    127.     10.    195.     13.
    266.     15.    326.     16.    499.     20.    600.     22.    644.     23.
    721.     24.    786.     25.    877.     27.    885.     27.    965.     28.
    966.     28.   1002.     28.   1033.     29.    979.     28.    923.     27.
    844.     26.    735.     24.    591.     22.    473.     20.    387.     18.
    282.     15.    227.     14.    188.     12.    149.     11.    134.     10.
    112.     10.    110.      9.    104.      9.     92.      9.     89.      8.
    102.      9.     92.      9.     88.      8.     89.      8.     92.      9.
     83.      8.     90.      9.    112.     10.     81.      8.    109.      9.
     81.      8.    103.      9.     99.      9.     87.      8.     83.      8.
     77.      8.     90.      9.    116.     10.    117.     10.    142.     11.
    162.     11.    178.     12.    212.     13.    254.     14.    277.     15.
    290.     15.    307.     16.    356.     17.    326.     16.    322.     16.
    332.     16.    341.     17.    343.     17.    323.     16.    289.     15.
    267.     15.    224.     13.    206.     13.    180.     12.    158.     11.
    128.     10.    125.     10.    130.     10.    118.     10.    106.      9.
    109.      9.    103.      9.    108.      9.     87.      8.     88.      8.
    112.     10.     96.     12.    104.      9.    101.      9.    109.     10.
     97.      9.    101.      9.    118.     10.    124.     10.    168.     12.
    242.     14.    372.     17.    519.     20.    707.     24.    865.     26.
   1029.     29.   1148.     30.   1281.     32.   1383.     33.   1556.     35.
   1638.     36.   1665.     37.   1763.     38.   1812.     38.   1815.     38.
   1841.     38.   1804.     38.   1644.     36.   1464.     34.   1224.     31.
   1010.     29.    773.     25.    602.     22.    482.     20.    375.     17.
    295.     16.    235.     14.    186.     12.    153.     11.    132.     10.
    115.     10.    105.      9.     96.      9.     96.      9.     91.      9.
     98.      9.     97.      9.     85.      9.     88.      9.     82.      8.
     83.      8.    100.      9.    103.      9.     96.      9.     90.      9.
     87.      9.     90.      9.     95.      9.     83.      8.     95.      9.
     88.      9.     93.      9.     91.      9.     89.      9.    114.     10.
    114.     10.    134.     11.    126.     10.    135.     11.    154.     11.
    154.     11.    163.     12.    181.     12.    191.     13.    201.     13.
    218.     13.    225.     14.    224.     14.    246.     14.    246.     14.
    255.     14.    239.     14.    220.     13.    221.     14.    239.     14.
    209.     13.    201.     13.    197.     13.    191.     13.    196.     13.
    228.     14.    254.     14.    304.     16.    348.     17.    396.     18.
    428.     19.    458.     19.    496.     20.    526.     21.    574.     22.
    604.     22.    593.     22.    637.     23.    656.     23.    681.     23.
    653.     23.    630.     23.    604.     22.    549.     21.    507.     20.
    440.     19.    372.     17.    308.     16.    252.     14.    224.     14.
    191.     13.    171.     12.    145.     11.    124.     10.    119.     10.
    104.     10.    107.     10.     88.      9.     88.      9.    107.     10.
     91.      9.     84.      9.     72.      8.     72.      8.     82.      9.
     96.      9.     92.      9.     94.      9.    101.     10.     92.      9.
     78.      8.     76.      8.     83.      9.     84.      9.     86.      9.
     86.      9.     78.      9.     91.      9.     99.      9.     95.      9.
     88.      9.     89.      9.     81.      9.     82.      9.     90.      9.
     88.      9.     81.      9.     81.      9.     76.      8.     75.      8.
     88.      9.    100.      9.     90.      9.     80.      9.     78.      9.
     86.      9.     93.      9.     70.      8.     75.      8.     68.      8.
     79.      9.     87.      9.     85.      9.     78.      9.     73.      8.
     83.      9.     87.      9.     89.      9.     98.      9.     92.      9.
    106.     10.     94.      9.     96.      9.     91.      9.     88.      9.
     99.      9.    106.     10.    105.     10.     98.      9.     98.      9.
     98.      9.    104.     10.    108.     10.    116.     10.    112.     10.
    115.     10.    135.     11.    153.     11.    160.     12.    152.     11.
    159.     12.    172.     12.    190.     13.    201.     13.    198.     13.
    200.     13.    211.     13.    214.     14.    254.     15.    250.     15.
    273.     16.    348.     18.    416.     19.    462.     20.    575.     22.
    711.     25.    780.     26.    933.     28.    964.     29.   1100.     31.
   1205.     32.   1312.     33.   1294.     33.   1371.     34.   1502.     36.
   1582.     37.   1634.     37.   1716.     38.   1679.     38.   1687.     38.
   1709.     38.   1694.     38.   1641.     37.   1462.     35.   1348.     34.
   1212.     32.   1014.     29.    889.     28.    727.     25.    560.     22.
    492.     21.    427.     19.    318.     17.    293.     16.    232.     14.
    198.     13.    173.     13.    147.     12.    122.     11.    102.     10.
    138.     11.    107.     10.     96.     10.     90.      9.     88.      9.
    102.     10.     99.     10.     95.     10.    106.     10.     84.      9.
     84.      9.     92.     10.     86.      9.     93.     10.    100.     10.
     93.     10.     93.     10.     95.     10.     89.      9.     79.      9.
     93.     10.     75.      9.     81.      9.     80.      9.     87.      9.
     89.      9.     85.      9.     80.      9.     88.      9.     96.     10.
     95.     10.     86.      9.     90.     10.     92.     10.     94.     10.
     89.      9.     92.     10.     81.      9.     89.      9.     70.      9.
     83.      9.     83.      9.     83.      9.     88.      9.    102.     10.
     93.     10.     95.     10.    101.     10.     93.     10.     94.     10.
     86.      9.     79.      9.     98.     10.    108.     10.    111.     10.
     86.      9.    102.      8.     83.     10.     82.     10.    102.     10.
     98.     10.    120.     11.    143.     12.    136.     12.    166.     13.
    154.     12.    206.     14.    192.     14.    220.     15.    280.     16.
    336.     18.    377.     19.    449.     20.    448.     20.    484.     21.
    539.     22.    577.     23.    649.     24.    674.     25.    657.     24.
    704.     25.    773.     26.    734.     26.    777.     27.    793.     27.
    779.     27.    764.     26.    793.     27.    769.     26.    706.     25.
    701.     25.    645.     24.    626.     24.    563.     23.    500.     21.
    436.     20.    377.     19.    343.     18.    286.     16.    262.     16.
    235.     15.    210.     14.    199.     14.    141.     12.    127.     11.
    115.     11.    114.     11.    105.     11.     94.     10.    111.     11.
    120.     11.     97.     10.     89.     10.    101.     10.     85.     10.
     91.     10.     83.     10.     98.     10.     79.      9.     97.     10.
     92.     10.     94.     10.    103.     11.     94.     10.     95.     10.
    100.     10.     83.     10.     96.     10.     90.     10.     95.     10.
    106.     11.    108.     11.     99.     10.    105.     11.    119.     11.
    131.     12.    153.     12.    136.     12.    145.     12.    187.     14.
    211.     14.    241.     15.    277.     16.    322.     17.    346.     18.
    399.     19.    429.     20.    462.     21.    527.     22.    513.     22.
    514.     22.    559.     23.    557.     23.    605.     23.    631.     24.
    666.     25.    648.     24.    679.     24.    714.     25.    646.     23.
    647.     23.    646.     23.    625.     23.    624.     23.    552.     22.
    510.     21.    516.     21.    426.     19.    426.     19.    331.     17.
    299.     16.    257.     15.    210.     14.    212.     14.    202.     14.
    181.     13.    177.     13.    173.     13.    161.     12.    208.     14.
    214.     14.    238.     15.    241.     15.    283.     16.    319.     17.
    335.     17.    389.     18.    393.     18.    412.     19.    382.     18.
    457.     20.    456.     20.    516.     21.    470.     20.    508.     21.
    519.     21.    557.     22.    526.     21.    567.     22.    530.     21.
    561.     22.    555.     22.    548.     22.    552.     22.    497.     21.
    479.     20.    494.     21.    437.     19.    399.     19.    351.     18.
    317.     17.    265.     15.    261.     15.    247.     15.    197.     13.
    162.     12.    162.     12.    159.     12.    133.     11.    138.     11.
    125.     11.    108.     10.     96.     10.     95.     10.    127.     11.
    110.     10.     98.     10.    109.     10.    110.     10.     84.      9.
    117.     11.    118.     11.    102.     10.     96.     10.    104.     10.
     94.     10.    100.     10.     91.     10.    111.     10.    101.     10.
    110.     10.    108.     10.     94.     10.    115.     11.    102.     10.
    118.     11.    128.     11.    109.     10.     94.     10.    110.     10.
    116.     11.     92.     10.    105.     10.     91.     10.    103.     10.
    104.     10.    123.     16.    143.     11.    145.     11.    153.     12.
    169.     12.    178.     13.    204.     13.    231.     14.    250.     15.
    263.     15.    309.     16.    381.     18.    372.     18.    377.     18.
    385.     18.    424.     19.    442.     19.    431.     19.    467.     20.
    467.     20.    455.     19.    463.     20.    508.     21.    507.     20.
    554.     21.    544.     21.    566.     22.    536.     21.    582.     22.
    600.     22.    599.     22.    599.     22.    573.     22.    579.     22.
    572.     22.    532.     21.    479.     20.    456.     19.    401.     18.
    421.     19.    397.     18.    360.     17.    348.     17.    334.     17.
    336.     17.    327.     17.    314.     16.    322.     16.    343.     17.
    328.     17.    376.     18.    406.     18.    436.     19.    472.     20.
    489.     20.    517.     21.    603.     22.    644.     23.    666.     23.
    642.     23.    645.     23.    673.     24.    746.     25.    757.     25.
    786.     25.    792.     25.    861.     27.    880.     27.    871.     27.
    880.     27.    935.     28.    906.     27.    957.     28.    934.     28.
    948.     28.    961.     28.    929.     28.    938.     28.    921.     27.
    885.     27.    907.     27.    844.     26.    800.     26.    731.     24.
    690.     24.    605.     22.    563.     22.    486.     20.    426.     19.
    358.     17.    355.     17.    307.     16.    290.     16.    255.     15.
    253.     15.    243.     14.    214.     14.    186.     13.    187.     13.
    159.     12.    151.     10.    150.     12.    146.     11.    137.     11.
    138.     11.    141.     11.    127.     11.    128.     11.    137.     11.
    131.     11.    131.     11.    140.     11.    154.     12.    150.     12.
    163.     12.    187.     13.    243.     14.    294.     16.    309.     16.
    360.     17.    358.     17.    431.     19.    486.     20.    541.     21.
    549.     21.    559.     21.    630.     23.    632.     23.    713.     24.
    717.     24.    729.     24.    764.     25.    777.     25.    806.     26.
    838.     26.    848.     26.    857.     26.    899.     27.    915.     27.
    919.     27.    987.     28.   1017.     29.   1012.     29.   1045.     29.
   1035.     29.   1036.     29.   1017.     29.   1017.     29.    981.     28.
    965.     28.    913.     27.    800.     26.    812.     26.    761.     25.
    673.     23.    660.     23.    590.     22.    531.     21.    469.     20.
    439.     19.    419.     19.    370.     18.    317.     16.    315.     16.
    288.     16.    275.     15.    249.     15.    218.     14.    195.     13.
    194.     13.    195.     13.    153.     12.    148.     12.    138.     11.
    135.     11.    146.     12.    139.     11.    133.     11.    144.     11.
    132.     11.    142.     11.    144.     11.    149.     12.    162.     12.
    160.     12.    163.     12.    170.     12.    168.     12.    180.     13.
    176.     12.    184.     13.    193.     13.    185.     13.    187.     13.
    187.     13.    193.     13.    211.     14.    203.     13.    200.     13.
    212.     14.    232.     14.    247.     15.    240.     15.    233.     15.
    237.     15.    228.     14.    236.     15.    242.     15.    240.     15.
    239.     15.    248.     15.    255.     15.    249.     15.    257.     15.
    250.     15.    239.     15.    244.     15.    226.     14.    230.     14.
    227.     14.    210.     14.    209.     14.    195.     13.    193.     13.
    172.     13.    182.     13.    172.     13.    169.     13.    163.     12.
    156.     12.    144.     12.    138.     12.    133.     11.    135.     11.
    132.     11.    138.     12.    118.     11.    127.     11.    131.     11.
    126.     11.    124.     11.    119.     11.    122.     11.    124.     11.
    127.     11.    125.     11.    132.     11.    137.     12.    133.     11.
    137.     12.    134.     11.    127.     11.    133.     11.    130.     11.
    122.     11.    130.     11.    128.     11.    122.     11.    127.     11.
    131.     11.    125.     11.    137.     12.    143.     12.    156.     12.
    149.     12.    150.     12.    152.     12.    142.     12.    146.     12.
    154.     12.    158.     12.    167.     13.    180.     13.    181.     13.
    177.     13.    181.     13.    185.     13.    193.     13.    202.     14.
    203.     14.    204.     14.    205.     14.    216.     14.    229.     14.
    237.     15.    245.     15.    230.     14.    224.     14.    250.     15.
    242.     15.    248.     15.    253.     15.    276.     16.    270.     16.
    254.     15.    255.     15.    273.     16.    277.     16.    259.     15.
    275.     16.    281.     16.    303.     17.    313.     17.    301.     17.
    281.     16.    255.     16.    272.     16.    283.     16.    284.     16.
    278.     16.    276.     16.    256.     16.    251.     15.    262.     16.
    247.     15.    243.     15.    260.     16.    251.     15.    249.     15.
    241.     15.    247.     15.    240.     15.    217.     15.    222.     15.
    242.     15.    239.     15.    206.     14.    195.     14.    192.     14.
    210.     14.    192.     14.    204.     14.    209.     14.    218.     15.
    228.     15.    223.     15.    235.     15.    234.     15.    217.     14.
    246.     15.    275.     16.    271.     16.    264.     16.    261.     16.
    250.     15.    262.     16.    259.     16.    279.     16.    296.     17.
    279.     16.    269.     16.    285.     16.    305.     17.    329.     17.
    318.     17.    317.     17.    329.     17.    320.     17.    323.     17.
    330.     17.    341.     18.    310.     17.    323.     17.    333.     17.
    330.     17.    330.     17.    308.     17.    334.     17.    340.     18.
    347.     18.    358.     18.    350.     18.    334.     17.    343.     18.
    355.     18.    327.     17.    337.     18.    330.     17.    323.     17.
    313.     17.    291.     16.    285.     16.    296.     17.    312.     17.
    295.     17.    266.     16.    275.     16.    273.     16.    248.     15.
    227.     15.    237.     15.    209.     14.    188.     14.    206.     14.
    202.     14.    206.     14.    209.     14.    209.     14.    205.     14.
    202.     14.    201.     12.    182.     15.    173.     14.    169.     14.
    171.     14.    183.     15.    176.     14.    186.     15.    190.     15.
    186.     15.    182.     14.    182.     14.    180.     14.    181.     14.
    186.     15.    172.     14.    157.     14.    172.     14.    174.     14.
    179.     14.    195.     15.    187.     15.    177.     14.    189.     15.
    191.     15.    203.     15.    184.     15.    175.     14.    202.     15.
    204.     15.    188.     15.    199.     15.    199.     15.    184.     15.
    212.     15.    213.     15.    211.     15.    218.     15.    196.     15.
    199.     15.    195.     15.    199.     15.    197.     15.    185.     15.
    190.     15.    205.     15.    198.     15.    203.     15.    209.     15.
    199.     15.    185.     15.    200.     15.    224.     16.    211.     15.
    206.     15.    202.     15.    215.     15.    215.     15.    210.     15.
    207.     15.    235.     16.    251.     16.    258.     16.    259.     16.
    242.     16.    235.     16.    266.     17.    260.     17.    248.     16.
    266.     17.    286.     17.    292.     17.    291.     17.    292.     17.
    322.     18.    307.     18.    306.     18.    298.     17.    315.     18.
    342.     18.    364.     19.    341.     18.    343.     18.    360.     19.
    365.     19.    370.     19.    378.     19.    372.     19.    374.     19.
    357.     19.    380.     19.    407.     20.    394.     19.    409.     20.
    428.     20.    423.     20.    405.     20.    416.     20.    443.     20.
    446.     21.    397.     21.    434.     22.    420.     21.    431.     22.
    419.     21.    452.     22.    487.     23.    486.     23.    453.     22.
    443.     22.    467.     22.    508.     23.    454.     22.    461.     22.
    469.     22.    460.     22.    470.     22.    438.     22.    468.     22.
    488.     23.    479.     22.    491.     23.    536.     23.    521.     23.
    503.     23.    486.     23.    480.     22.    469.     22.    477.     22.
    489.     23.    493.     23.    497.     23.    488.     23.    506.     23.
    503.     23.    497.     23.    500.     23.    512.     23.    538.     23.
    555.     24.    559.     24.    571.     24.    612.     25.    595.     24.
    609.     25.    629.     25.    654.     25.    699.     26.    710.     26.
    740.     27.    777.     27.    785.     27.    789.     27.    774.     27.
    786.     27.    812.     28.    826.     28.    853.     28.    862.     29.
    877.     29.    909.     29.    929.     29.    897.     29.    894.     29.
    927.     29.    951.     30.    938.     30.    979.     30.    973.     30.
   1021.     31.   1046.     31.   1051.     31.   1060.     31.   1031.     31.
   1065.     31.   1087.     32.   1139.     32.   1139.     32.   1136.     32.
   1168.     33.   1166.     33.   1172.     33.   1190.     33.   1209.     33.
   1203.     33.   1215.     33.   1263.     34.   1267.     34.   1220.     33.
   1265.     34.   1275.     34.   1273.     34.   1284.     34.   1308.     34.
   1314.     34.   1312.     34.   1324.     34.   1317.     34.   1297.     34.
   1312.     34.   1310.     49.   1315.     49.   1330.     50.   1356.     50.
   1387.     51.   1371.     50.   1366.     50.   1379.     50.   1352.     50.
   1386.     51.   1367.     50.   1334.     50.   1366.     50.   1367.     50.
   1330.     50.   1327.     50.   1299.     49.   1303.     49.   1294.     49.
   1268.     49.   1244.     48.   1260.     48.   1195.     47.   1266.     49.
   1165.     47.   1165.     47.   1160.     47.   1167.     47.   1124.     46.
   1147.     47.   1077.     45.   1055.     45.   1021.     44.    987.     44.
   1014.     44.    944.     43.    965.     43.   1028.     44.    991.     44.
    879.     42.    880.     42.    886.     42.    901.     42.    824.     41.
    881.     42.    885.     42.    880.     42.    874.     42.    801.     40.
    848.     41.    833.     41.    825.     41.    853.     41.    846.     41.
    810.     40.    860.     41.    874.     42.    885.     42.    869.     42.
    815.     40.    796.     40.    771.     40.    805.     40.    756.     39.
    826.     41.    784.     40.    803.     40.    839.     41.    840.     41.
    830.     41.    804.     40.    838.     41.    804.     40.    770.     40.
    845.     41.    858.     41.    831.     41.    785.     40.    742.     39.
    868.     41.    795.     40.    835.     41.    876.     42.    821.     41.
    807.     40.    807.     40.    783.     40.    864.     41.    877.     42.
    928.     43.    924.     43.    886.     42.    829.     41.    865.     41.
    897.     42.    847.     41.    856.     41.    863.     41.    882.     42.
    880.     42.      0.      0.      0.      0.      0.      0.      0.      0.
